u,c,amplitude
"[-0.02008702 -0.02008548 -0.02008087 -0.02007319 -0.02006244 -0.02004862
 -0.02003173 -0.02001178 -0.01998877 -0.0199627  -0.01993358 -0.01990141
 -0.0198662  -0.01982795 -0.01978667 -0.01974236 -0.01969504 -0.0196447
 -0.01959136 -0.01953503 -0.01947572 -0.01941343 -0.01934817 -0.01927996
 -0.01920881 -0.01913472 -0.01905771 -0.0189778  -0.01889498 -0.01880929
 -0.01872073 -0.01862931 -0.01853505 -0.01843796 -0.01833807 -0.01823538
 -0.01812991 -0.01802168 -0.01791071 -0.01779701 -0.01768061 -0.01756151
 -0.01743974 -0.01731532 -0.01718827 -0.01705861 -0.01692636 -0.01679154
 -0.01665416 -0.01651426 -0.01637186 -0.01622697 -0.01607962 -0.01592984
 -0.01577765 -0.01562306 -0.01546611 -0.01530682 -0.01514522 -0.01498133
 -0.01481517 -0.01464678 -0.01447618 -0.01430339 -0.01412845 -0.01395137
 -0.0137722  -0.01359095 -0.01340766 -0.01322235 -0.01303505 -0.0128458
 -0.01265462 -0.01246154 -0.01226659 -0.0120698  -0.01187121 -0.01167084
 -0.01146872 -0.0112649  -0.01105939 -0.01085223 -0.01064345 -0.01043309
 -0.01022118 -0.01000775 -0.00979283 -0.00957646 -0.00935867 -0.00913949
 -0.00891896 -0.00869712 -0.00847399 -0.00824961 -0.00802402 -0.00779724
 -0.00756933 -0.0073403  -0.0071102  -0.00687906 -0.00664692 -0.00641381
 -0.00617977 -0.00594484 -0.00570904 -0.00547242 -0.00523501 -0.00499685
 -0.00475798 -0.00451843 -0.00427823 -0.00403744 -0.00379607 -0.00355417
 -0.00331178 -0.00306893 -0.00282565 -0.002582   -0.002338   -0.00209368
 -0.0018491  -0.00160427 -0.00135925 -0.00111407 -0.00086876 -0.00062337
 -0.00037792 -0.00013246  0.00011297  0.00035835  0.00060363  0.00084877
  0.00109375  0.00133851  0.00158304  0.00182728  0.0020712   0.00231477
  0.00255795  0.0028007   0.00304299  0.00328478  0.00352603  0.00376672
  0.00400679  0.00424623  0.00448498  0.00472302  0.00496031  0.00519682
  0.00543251  0.00566734  0.00590128  0.0061343   0.00636637  0.00659743
  0.00682748  0.00705646  0.00728435  0.00751111  0.0077367   0.00796111
  0.00818428  0.0084062   0.00862682  0.00884612  0.00906406  0.00928061
  0.00949574  0.00970941  0.00992161  0.01013229  0.01034142  0.01054897
  0.01075492  0.01095924  0.01116189  0.01136284  0.01156206  0.01175954
  0.01195523  0.01214911  0.01234115  0.01253132  0.0127196   0.01290596
  0.01309036  0.0132728   0.01345323  0.01363163  0.01380798  0.01398225
  0.01415441  0.01432445  0.01449233  0.01465803  0.01482154  0.01498281
  0.01514184  0.0152986   0.01545306  0.01560521  0.01575502  0.01590247
  0.01604754  0.0161902   0.01633045  0.01646825  0.01660359  0.01673646
  0.01686682  0.01699466  0.01711996  0.01724271  0.01736289  0.01748048
  0.01759546  0.01770782  0.01781754  0.0179246   0.018029    0.01813071
  0.01822972  0.01832602  0.01841959  0.01851042  0.0185985   0.01868382
  0.01876635  0.0188461   0.01892304  0.01899717  0.01906848  0.01913696
  0.0192026   0.01926538  0.0193253   0.01938236  0.01943653  0.01948783
  0.01953623  0.01958173  0.01962432  0.01966401  0.01970078  0.01973462
  0.01976554  0.01979353  0.01981858  0.01984069  0.01985986  0.01987609
  0.01988937  0.0198997   0.01990708  0.01991151  0.01991298  0.01991151
  0.01990708  0.0198997   0.01988937  0.01987609  0.01985986  0.01984069
  0.01981858  0.01979353  0.01976554  0.01973462  0.01970078  0.01966401
  0.01962432  0.01958173  0.01953623  0.01948783  0.01943653  0.01938236
  0.0193253   0.01926538  0.0192026   0.01913696  0.01906848  0.01899717
  0.01892304  0.0188461   0.01876635  0.01868382  0.0185985   0.01851042
  0.01841959  0.01832602  0.01822972  0.01813071  0.018029    0.0179246
  0.01781754  0.01770782  0.01759546  0.01748048  0.01736289  0.01724271
  0.01711996  0.01699466  0.01686682  0.01673646  0.01660359  0.01646825
  0.01633045  0.0161902   0.01604754  0.01590247  0.01575502  0.01560521
  0.01545306  0.0152986   0.01514184  0.01498281  0.01482154  0.01465803
  0.01449233  0.01432445  0.01415441  0.01398225  0.01380798  0.01363163
  0.01345323  0.0132728   0.01309036  0.01290596  0.0127196   0.01253132
  0.01234115  0.01214911  0.01195523  0.01175954  0.01156206  0.01136284
  0.01116189  0.01095924  0.01075492  0.01054897  0.01034142  0.01013229
  0.00992161  0.00970941  0.00949574  0.00928061  0.00906406  0.00884612
  0.00862682  0.0084062   0.00818428  0.00796111  0.0077367   0.00751111
  0.00728435  0.00705646  0.00682748  0.00659743  0.00636637  0.0061343
  0.00590128  0.00566734  0.00543251  0.00519682  0.00496031  0.00472302
  0.00448498  0.00424623  0.00400679  0.00376672  0.00352603  0.00328478
  0.00304299  0.0028007   0.00255795  0.00231477  0.0020712   0.00182728
  0.00158304  0.00133851  0.00109375  0.00084877  0.00060363  0.00035835
  0.00011297 -0.00013246 -0.00037792 -0.00062337 -0.00086876 -0.00111407
 -0.00135925 -0.00160427 -0.0018491  -0.00209368 -0.002338   -0.002582
 -0.00282565 -0.00306893 -0.00331178 -0.00355417 -0.00379607 -0.00403744
 -0.00427823 -0.00451843 -0.00475798 -0.00499685 -0.00523501 -0.00547242
 -0.00570904 -0.00594484 -0.00617977 -0.00641381 -0.00664692 -0.00687906
 -0.0071102  -0.0073403  -0.00756933 -0.00779724 -0.00802402 -0.00824961
 -0.00847399 -0.00869712 -0.00891896 -0.00913949 -0.00935867 -0.00957646
 -0.00979283 -0.01000775 -0.01022118 -0.01043309 -0.01064345 -0.01085223
 -0.01105939 -0.0112649  -0.01146872 -0.01167084 -0.01187121 -0.0120698
 -0.01226659 -0.01246154 -0.01265462 -0.0128458  -0.01303505 -0.01322235
 -0.01340766 -0.01359095 -0.0137722  -0.01395137 -0.01412845 -0.01430339
 -0.01447618 -0.01464678 -0.01481517 -0.01498133 -0.01514522 -0.01530682
 -0.01546611 -0.01562306 -0.01577765 -0.01592984 -0.01607962 -0.01622697
 -0.01637186 -0.01651426 -0.01665416 -0.01679154 -0.01692636 -0.01705861
 -0.01718827 -0.01731532 -0.01743974 -0.01756151 -0.01768061 -0.01779701
 -0.01791071 -0.01802168 -0.01812991 -0.01823538 -0.01833807 -0.01843796
 -0.01853505 -0.01862931 -0.01872073 -0.01880929 -0.01889498 -0.0189778
 -0.01905771 -0.01913472 -0.01920881 -0.01927996 -0.01934817 -0.01941343
 -0.01947572 -0.01953503 -0.01959136 -0.0196447  -0.01969504 -0.01974236
 -0.01978667 -0.01982795 -0.0198662  -0.01990141 -0.01993358 -0.0199627
 -0.01998877 -0.02001178 -0.02003173 -0.02004862 -0.02006244 -0.02007319
 -0.02008087 -0.02008548]",0.9999500012499405,0.04
"[-0.04158284 -0.0415797  -0.0415703  -0.04155463 -0.04153269 -0.04150449
 -0.04147004 -0.04142934 -0.04138239 -0.0413292  -0.04126979 -0.04120416
 -0.04113233 -0.0410543  -0.0409701  -0.04087972 -0.0407832  -0.04068054
 -0.04057176 -0.04045689 -0.04033593 -0.04020892 -0.04007587 -0.0399368
 -0.03979174 -0.03964071 -0.03948374 -0.03932086 -0.03915208 -0.03897745
 -0.03879698 -0.03861072 -0.03841868 -0.03822091 -0.03801743 -0.03780829
 -0.03759351 -0.03737312 -0.03714718 -0.03691572 -0.03667876 -0.03643636
 -0.03618856 -0.03593539 -0.0356769  -0.03541312 -0.03514412 -0.03486992
 -0.03459057 -0.03430613 -0.03401663 -0.03372213 -0.03342268 -0.03311832
 -0.0328091  -0.03249508 -0.0321763  -0.03185283 -0.03152471 -0.03119199
 -0.03085474 -0.030513   -0.03016684 -0.0298163  -0.02946145 -0.02910235
 -0.02873905 -0.02837162 -0.0280001  -0.02762457 -0.02724508 -0.0268617
 -0.02647449 -0.02608351 -0.02568882 -0.02529049 -0.02488858 -0.02448316
 -0.02407429 -0.02366204 -0.02324647 -0.02282766 -0.02240566 -0.02198055
 -0.0215524  -0.02112126 -0.02068722 -0.02025034 -0.01981068 -0.01936833
 -0.01892335 -0.01847581 -0.01802578 -0.01757333 -0.01711854 -0.01666147
 -0.01620221 -0.01574081 -0.01527735 -0.01481191 -0.01434456 -0.01387537
 -0.01340442 -0.01293177 -0.01245751 -0.0119817  -0.01150442 -0.01102575
 -0.01054575 -0.01006451 -0.00958209 -0.00909858 -0.00861404 -0.00812855
 -0.00764219 -0.00715502 -0.00666714 -0.00617859 -0.00568948 -0.00519986
 -0.00470981 -0.00421941 -0.00372874 -0.00323786 -0.00274685 -0.00225578
 -0.00176474 -0.00127378 -0.000783   -0.00029245  0.00019778  0.00068762
  0.001177    0.00166585  0.00215409  0.00264165  0.00312845  0.00361443
  0.00409952  0.00458364  0.00506671  0.00554867  0.00602945  0.00650898
  0.00698718  0.00746399  0.00793933  0.00841314  0.00888535  0.00935588
  0.00982467  0.01029166  0.01075676  0.01121992  0.01168107  0.01214015
  0.01259707  0.01305179  0.01350423  0.01395433  0.01440202  0.01484724
  0.01528993  0.01573002  0.01616745  0.01660216  0.01703408  0.01746316
  0.01788933  0.01831253  0.0187327   0.01914979  0.01956372  0.01997446
  0.02038193  0.02078608  0.02118686  0.0215842   0.02197805  0.02236836
  0.02275507  0.02313813  0.02351748  0.02389307  0.02426485  0.02463276
  0.02499676  0.0253568   0.02571282  0.02606478  0.02641262  0.0267563
  0.02709578  0.027431    0.02776191  0.02808848  0.02841066  0.0287284
  0.02904167  0.0293504   0.02965458  0.02995415  0.03024907  0.0305393
  0.03082481  0.03110554  0.03138148  0.03165257  0.03191879  0.03218008
  0.03243643  0.0326878   0.03293414  0.03317543  0.03341164  0.03364273
  0.03386867  0.03408943  0.03430498  0.0345153   0.03472035  0.03492011
  0.03511454  0.03530363  0.03548735  0.03566567  0.03583857  0.03600603
  0.03616802  0.03632453  0.03647552  0.03662099  0.03676091  0.03689526
  0.03702403  0.03714719  0.03726473  0.03737665  0.03748291  0.03758351
  0.03767843  0.03776766  0.03785119  0.03792901  0.03800111  0.03806747
  0.03812809  0.03818297  0.03823208  0.03827544  0.03831302  0.03834483
  0.03837087  0.03839112  0.03840559  0.03841427  0.03841716  0.03841427
  0.03840559  0.03839112  0.03837087  0.03834483  0.03831302  0.03827544
  0.03823208  0.03818297  0.03812809  0.03806747  0.03800111  0.03792901
  0.03785119  0.03776766  0.03767843  0.03758351  0.03748291  0.03737665
  0.03726473  0.03714719  0.03702403  0.03689526  0.03676091  0.03662099
  0.03647552  0.03632453  0.03616802  0.03600603  0.03583857  0.03566567
  0.03548735  0.03530363  0.03511454  0.03492011  0.03472035  0.0345153
  0.03430498  0.03408943  0.03386867  0.03364273  0.03341164  0.03317543
  0.03293414  0.0326878   0.03243643  0.03218008  0.03191879  0.03165257
  0.03138148  0.03110554  0.03082481  0.0305393   0.03024907  0.02995415
  0.02965458  0.0293504   0.02904167  0.0287284   0.02841066  0.02808848
  0.02776191  0.027431    0.02709578  0.0267563   0.02641262  0.02606478
  0.02571282  0.0253568   0.02499676  0.02463276  0.02426485  0.02389307
  0.02351748  0.02313813  0.02275507  0.02236836  0.02197805  0.0215842
  0.02118686  0.02078608  0.02038193  0.01997446  0.01956372  0.01914979
  0.0187327   0.01831253  0.01788933  0.01746316  0.01703408  0.01660216
  0.01616745  0.01573002  0.01528993  0.01484724  0.01440202  0.01395433
  0.01350423  0.01305179  0.01259707  0.01214015  0.01168107  0.01121992
  0.01075676  0.01029166  0.00982467  0.00935588  0.00888535  0.00841314
  0.00793933  0.00746399  0.00698718  0.00650898  0.00602945  0.00554867
  0.00506671  0.00458364  0.00409952  0.00361443  0.00312845  0.00264165
  0.00215409  0.00166585  0.001177    0.00068762  0.00019778 -0.00029245
 -0.000783   -0.00127378 -0.00176474 -0.00225578 -0.00274685 -0.00323786
 -0.00372874 -0.00421941 -0.00470981 -0.00519986 -0.00568948 -0.00617859
 -0.00666714 -0.00715502 -0.00764219 -0.00812855 -0.00861404 -0.00909858
 -0.00958209 -0.01006451 -0.01054575 -0.01102575 -0.01150442 -0.0119817
 -0.01245751 -0.01293177 -0.01340442 -0.01387537 -0.01434456 -0.01481191
 -0.01527735 -0.01574081 -0.01620221 -0.01666147 -0.01711854 -0.01757333
 -0.01802578 -0.01847581 -0.01892335 -0.01936833 -0.01981068 -0.02025034
 -0.02068722 -0.02112126 -0.0215524  -0.02198055 -0.02240566 -0.02282766
 -0.02324647 -0.02366204 -0.02407429 -0.02448316 -0.02488858 -0.02529049
 -0.02568882 -0.02608351 -0.02647449 -0.0268617  -0.02724508 -0.02762457
 -0.0280001  -0.02837162 -0.02873905 -0.02910235 -0.02946145 -0.0298163
 -0.03016684 -0.030513   -0.03085474 -0.03119199 -0.03152471 -0.03185283
 -0.0321763  -0.03249508 -0.0328091  -0.03311832 -0.03342268 -0.03372213
 -0.03401663 -0.03430613 -0.03459057 -0.03486992 -0.03514412 -0.03541312
 -0.0356769  -0.03593539 -0.03618856 -0.03643636 -0.03667876 -0.03691572
 -0.03714718 -0.03737312 -0.03759351 -0.03780829 -0.03801743 -0.03822091
 -0.03841868 -0.03861072 -0.03879698 -0.03897745 -0.03915208 -0.03932086
 -0.03948374 -0.03964071 -0.03979174 -0.0399368  -0.04007587 -0.04020892
 -0.04033593 -0.04045689 -0.04057176 -0.04068054 -0.0407832  -0.04087972
 -0.0409701  -0.0410543  -0.04113233 -0.04120416 -0.04126979 -0.0413292
 -0.04138239 -0.04142934 -0.04147004 -0.04150449 -0.04153269 -0.04155463
 -0.0415703  -0.0415797 ]",0.9998000199960041,0.08
"[-0.06366614 -0.06366135 -0.06364696 -0.06362297 -0.0635894  -0.06354626
 -0.06349353 -0.06343125 -0.06335941 -0.06327803 -0.06318713 -0.06308672
 -0.06297681 -0.06285744 -0.06272861 -0.06259036 -0.06244271 -0.06228568
 -0.0621193  -0.0619436  -0.06175861 -0.06156437 -0.06136091 -0.06114827
 -0.06092648 -0.06069558 -0.06045561 -0.06020662 -0.05994866 -0.05968175
 -0.05940596 -0.05912134 -0.05882792 -0.05852577 -0.05821494 -0.05789547
 -0.05756744 -0.05723089 -0.05688588 -0.05653248 -0.05617075 -0.05580075
 -0.05542254 -0.0550362  -0.05464178 -0.05423936 -0.053829   -0.05341079
 -0.05298478 -0.05255107 -0.05210971 -0.05166079 -0.05120438 -0.05074057
 -0.05026943 -0.04979104 -0.04930549 -0.04881287 -0.04831324 -0.04780671
 -0.04729335 -0.04677326 -0.04624652 -0.04571323 -0.04517347 -0.04462733
 -0.04407491 -0.04351631 -0.04295161 -0.04238091 -0.04180431 -0.04122191
 -0.04063379 -0.04004007 -0.03944084 -0.0388362  -0.03822626 -0.0376111
 -0.03699084 -0.03636559 -0.03573543 -0.03510048 -0.03446084 -0.03381662
 -0.03316792 -0.03251485 -0.03185752 -0.03119603 -0.0305305  -0.02986103
 -0.02918772 -0.0285107  -0.02783006 -0.02714592 -0.0264584  -0.02576759
 -0.02507362 -0.02437658 -0.02367661 -0.0229738  -0.02226827 -0.02156012
 -0.02084949 -0.02013647 -0.01942117 -0.01870373 -0.01798423 -0.01726281
 -0.01653956 -0.01581461 -0.01508807 -0.01436005 -0.01363067 -0.01290003
 -0.01216825 -0.01143545 -0.01070174 -0.00996722 -0.00923202 -0.00849625
 -0.00776001 -0.00702343 -0.00628661 -0.00554966 -0.0048127  -0.00407584
 -0.00333919 -0.00260285 -0.00186695 -0.00113159 -0.00039688  0.00033706
  0.00107014  0.00180224  0.00253325  0.00326306  0.00399157  0.00471867
  0.00544425  0.0061682   0.00689043  0.00761082  0.00832927  0.00904567
  0.00975992  0.01047192  0.01118157  0.01188876  0.01259339  0.01329536
  0.01399457  0.01469091  0.0153843   0.01607463  0.0167618   0.01744572
  0.01812629  0.01880341  0.01947699  0.02014693  0.02081315  0.02147553
  0.02213401  0.02278848  0.02343884  0.02408502  0.02472692  0.02536446
  0.02599754  0.02662608  0.02724999  0.02786919  0.02848359  0.02909311
  0.02969766  0.03029717  0.03089154  0.03148071  0.03206459  0.03264311
  0.03321618  0.03378373  0.03434568  0.03490195  0.03545248  0.03599719
  0.036536    0.03706885  0.03759567  0.03811637  0.03863091  0.0391392
  0.03964118  0.04013679  0.04062595  0.04110861  0.04158471  0.04205417
  0.04251694  0.04297296  0.04342217  0.04386451  0.04429993  0.04472836
  0.04514975  0.04556405  0.0459712   0.04637116  0.04676386  0.04714926
  0.04752732  0.04789797  0.04826118  0.04861689  0.04896507  0.04930567
  0.04963864  0.04996394  0.05028153  0.05059138  0.05089343  0.05118766
  0.05147402  0.05175248  0.05202301  0.05228557  0.05254012  0.05278664
  0.05302509  0.05325545  0.05347768  0.05369176  0.05389766  0.05409535
  0.05428481  0.05446602  0.05463895  0.05480359  0.0549599   0.05510788
  0.05524749  0.05537874  0.05550159  0.05561604  0.05572207  0.05581966
  0.05590881  0.0559895   0.05606173  0.05612547  0.05618074  0.05622751
  0.05626579  0.05629557  0.05631684  0.0563296   0.05633386  0.0563296
  0.05631684  0.05629557  0.05626579  0.05622751  0.05618074  0.05612547
  0.05606173  0.0559895   0.05590881  0.05581966  0.05572207  0.05561604
  0.05550159  0.05537874  0.05524749  0.05510788  0.0549599   0.05480359
  0.05463895  0.05446602  0.05428481  0.05409535  0.05389766  0.05369176
  0.05347768  0.05325545  0.05302509  0.05278664  0.05254012  0.05228557
  0.05202301  0.05175248  0.05147402  0.05118766  0.05089343  0.05059138
  0.05028153  0.04996394  0.04963864  0.04930567  0.04896507  0.04861689
  0.04826118  0.04789797  0.04752732  0.04714926  0.04676386  0.04637116
  0.0459712   0.04556405  0.04514975  0.04472836  0.04429993  0.04386451
  0.04342217  0.04297296  0.04251694  0.04205417  0.04158471  0.04110861
  0.04062595  0.04013679  0.03964118  0.0391392   0.03863091  0.03811637
  0.03759567  0.03706885  0.036536    0.03599719  0.03545248  0.03490195
  0.03434568  0.03378373  0.03321618  0.03264311  0.03206459  0.03148071
  0.03089154  0.03029717  0.02969766  0.02909311  0.02848359  0.02786919
  0.02724999  0.02662608  0.02599754  0.02536446  0.02472692  0.02408502
  0.02343884  0.02278848  0.02213401  0.02147553  0.02081315  0.02014693
  0.01947699  0.01880341  0.01812629  0.01744572  0.0167618   0.01607463
  0.0153843   0.01469091  0.01399457  0.01329536  0.01259339  0.01188876
  0.01118157  0.01047192  0.00975992  0.00904567  0.00832927  0.00761082
  0.00689043  0.0061682   0.00544425  0.00471867  0.00399157  0.00326306
  0.00253325  0.00180224  0.00107014  0.00033706 -0.00039688 -0.00113159
 -0.00186695 -0.00260285 -0.00333919 -0.00407584 -0.0048127  -0.00554966
 -0.00628661 -0.00702343 -0.00776001 -0.00849625 -0.00923202 -0.00996722
 -0.01070174 -0.01143545 -0.01216825 -0.01290003 -0.01363067 -0.01436005
 -0.01508807 -0.01581461 -0.01653956 -0.01726281 -0.01798423 -0.01870373
 -0.01942117 -0.02013647 -0.02084949 -0.02156012 -0.02226827 -0.0229738
 -0.02367661 -0.02437658 -0.02507362 -0.02576759 -0.0264584  -0.02714592
 -0.02783006 -0.0285107  -0.02918772 -0.02986103 -0.0305305  -0.03119603
 -0.03185752 -0.03251485 -0.03316792 -0.03381662 -0.03446084 -0.03510048
 -0.03573543 -0.03636559 -0.03699084 -0.0376111  -0.03822626 -0.0388362
 -0.03944084 -0.04004007 -0.04063379 -0.04122191 -0.04180431 -0.04238091
 -0.04295161 -0.04351631 -0.04407491 -0.04462733 -0.04517347 -0.04571323
 -0.04624652 -0.04677326 -0.04729335 -0.04780671 -0.04831324 -0.04881287
 -0.04930549 -0.04979104 -0.05026943 -0.05074057 -0.05120438 -0.05166079
 -0.05210971 -0.05255107 -0.05298478 -0.05341079 -0.053829   -0.05423936
 -0.05464178 -0.0550362  -0.05542254 -0.05580075 -0.05617075 -0.05653248
 -0.05688588 -0.05723089 -0.05756744 -0.05789547 -0.05821494 -0.05852577
 -0.05882792 -0.05912134 -0.05940596 -0.05968175 -0.05994866 -0.06020662
 -0.06045561 -0.06069558 -0.06092648 -0.06114827 -0.06136091 -0.06156437
 -0.06175861 -0.0619436  -0.0621193  -0.06228568 -0.06244271 -0.06259036
 -0.06272861 -0.06285744 -0.06297681 -0.06308672 -0.06318713 -0.06327803
 -0.06335941 -0.06343125 -0.06349353 -0.06354626 -0.0635894  -0.06362297
 -0.06364696 -0.06366135]",0.9995501012044665,0.12
"[-0.08570774 -0.08570121 -0.08568164 -0.08564902 -0.08560336 -0.08554466
 -0.08547295 -0.08538823 -0.08529052 -0.08517984 -0.08505621 -0.08491965
 -0.08477018 -0.08460785 -0.08443266 -0.08424467 -0.0840439  -0.08383039
 -0.08360419 -0.08336532 -0.08311385 -0.08284981 -0.08257326 -0.08228424
 -0.08198282 -0.08166904 -0.08134297 -0.08100466 -0.08065418 -0.0802916
 -0.07991697 -0.07953038 -0.07913189 -0.07872158 -0.07829952 -0.07786579
 -0.07742047 -0.07696364 -0.07649539 -0.0760158  -0.07552496 -0.07502296
 -0.0745099  -0.07398586 -0.07345094 -0.07290524 -0.07234886 -0.0717819
 -0.07120446 -0.07061666 -0.07001858 -0.06941035 -0.06879207 -0.06816385
 -0.06752581 -0.06687806 -0.06622072 -0.06555391 -0.06487773 -0.06419232
 -0.0634978  -0.06279429 -0.06208191 -0.06136079 -0.06063106 -0.05989285
 -0.05914628 -0.05839149 -0.05762861 -0.05685778 -0.05607912 -0.05529277
 -0.05449888 -0.05369757 -0.05288899 -0.05207327 -0.05125057 -0.050421
 -0.04958473 -0.04874189 -0.04789263 -0.04703709 -0.04617542 -0.04530776
 -0.04443425 -0.04355506 -0.04267032 -0.04178018 -0.0408848  -0.03998431
 -0.03907888 -0.03816865 -0.03725378 -0.03633441 -0.03541069 -0.03448278
 -0.03355083 -0.032615   -0.03167542 -0.03073227 -0.02978569 -0.02883583
